############################################################
#  PHASE PORTRAIT: (Var, dVar/dt, d²Var/dt²) trajectories  #
#                                                          #
#  For each array, track the variance dynamics in phase    #
#  space. Spiral in = attractor. Spiral out = repeller.    #
############################################################

  === amp=0.25 ===

  Step   Time     Var_ENERGY  dVar/dt    d²Var/dt²  Var_ENSTROPHY  dVar/dt    d²Var/dt²  Var_SHELL_η  dVar/dt    d²Var/dt²  Var_ACCUM_R  dVar/dt    d²Var/dt²  
  50      0.0050   2.98e-12  +5.96e-10  +1.19e-07   3.42e-11  +6.83e-09  +1.37e-06   2.48e-01  +4.95e+01  +9.91e+03   5.36e-06  +1.07e-03  +2.14e-01  
  200     0.0200   7.63e-10  +1.52e-07  +3.03e-05   8.75e-09  +1.74e-06  +3.47e-04   2.45e-01  -6.14e-01  -1.00e+04   2.33e-04  +4.56e-02  +8.91e+00  
  400     0.0400   1.25e-08  +2.34e-06  +4.37e-04   1.41e-07  +2.65e-05  +4.96e-03   2.41e-01  -7.53e-01  -2.77e+01   9.45e-04  +1.42e-01  +1.93e+01  
  600     0.0600   6.45e-08  +1.04e-05  +1.61e-03   7.23e-07  +1.16e-04  +1.80e-02   2.37e-01  -6.96e-01  +1.14e+01   1.98e-03  +2.07e-01  +1.29e+01  
  800     0.0800   2.09e-07  +2.88e-05  +3.69e-03   2.31e-06  +3.18e-04  +4.03e-02   2.33e-01  -8.90e-01  -3.87e+01   3.23e-03  +2.51e-01  +8.73e+00  
  1000    0.1000   5.22e-07  +6.27e-05  +6.78e-03   5.72e-06  +6.82e-04  +7.28e-02   2.28e-01  -1.02e+00  -2.60e+01   4.63e-03  +2.80e-01  +5.96e+00  
  1200    0.1200   1.11e-06  +1.18e-04  +1.10e-02   1.20e-05  +1.26e-03  +1.16e-01   2.22e-01  -1.09e+00  -1.34e+01   6.14e-03  +3.01e-01  +4.12e+00  
  1400    0.1400   2.12e-06  +2.01e-04  +1.66e-02   2.27e-05  +2.12e-03  +1.72e-01   2.17e-01  -1.12e+00  -6.81e+00   7.71e-03  +3.15e-01  +2.89e+00  
  1600    0.1600   3.71e-06  +3.20e-04  +2.37e-02   3.93e-05  +3.33e-03  +2.41e-01   2.11e-01  -1.13e+00  -1.68e+00   9.34e-03  +3.26e-01  +2.08e+00  
  1800    0.1800   6.13e-06  +4.83e-04  +3.26e-02   6.41e-05  +4.96e-03  +3.26e-01   2.06e-01  -1.12e+00  +2.49e+00   1.10e-02  +3.34e-01  +1.56e+00  
  2000    0.2000   9.63e-06  +7.00e-04  +4.35e-02   9.96e-05  +7.10e-03  +4.28e-01   2.00e-01  -1.09e+00  +5.90e+00   1.27e-02  +3.40e-01  +1.24e+00  
  2200    0.2200   1.46e-05  +9.85e-04  +5.68e-02   1.49e-04  +9.86e-03  +5.51e-01   1.95e-01  -1.05e+00  +8.00e+00   1.44e-02  +3.45e-01  +1.07e+00  
  2400    0.2400   2.13e-05  +1.35e-03  +7.29e-02   2.16e-04  +1.33e-02  +6.97e-01   1.90e-01  -1.07e+00  -3.63e+00   1.62e-02  +3.50e-01  +1.01e+00  
  2600    0.2600   3.04e-05  +1.81e-03  +9.22e-02   3.04e-04  +1.77e-02  +8.71e-01   1.84e-01  -1.02e+00  +8.95e+00   1.80e-02  +3.55e-01  +1.03e+00  
  2800    0.2800   4.23e-05  +2.39e-03  +1.15e-01   4.20e-04  +2.31e-02  +1.08e+00   1.80e-01  -9.71e-01  +9.93e+00   1.98e-02  +3.61e-01  +1.12e+00  
  3000    0.3000   5.78e-05  +3.10e-03  +1.43e-01   5.68e-04  +2.97e-02  +1.32e+00   1.75e-01  -9.18e-01  +1.06e+01   2.16e-02  +3.67e-01  +1.26e+00  
  3200    0.3200   7.77e-05  +3.98e-03  +1.76e-01   7.57e-04  +3.78e-02  +1.62e+00   1.71e-01  -8.62e-01  +1.11e+01   2.35e-02  +3.74e-01  +1.45e+00  
  3400    0.3400   1.03e-04  +5.05e-03  +2.15e-01   9.95e-04  +4.76e-02  +1.97e+00   1.67e-01  -8.05e-01  +1.14e+01   2.54e-02  +3.83e-01  +1.68e+00  
  3600    0.3600   1.35e-04  +6.36e-03  +2.61e-01   1.29e-03  +5.96e-02  +2.39e+00   1.63e-01  -7.47e-01  +1.16e+01   2.74e-02  +3.93e-01  +1.95e+00  
  3800    0.3800   1.74e-04  +7.94e-03  +3.17e-01   1.66e-03  +7.40e-02  +2.90e+00   1.60e-01  -6.89e-01  +1.17e+01   2.94e-02  +4.04e-01  +2.27e+00  
  4000    0.4000   2.24e-04  +9.85e-03  +3.83e-01   2.12e-03  +9.16e-02  +3.51e+00   1.56e-01  -6.30e-01  +1.17e+01   3.15e-02  +4.17e-01  +2.63e+00  
  4200    0.4200   2.85e-04  +1.22e-02  +4.62e-01   2.69e-03  +1.13e-01  +4.27e+00   1.54e-01  -5.72e-01  +1.16e+01   3.36e-02  +4.32e-01  +3.04e+00  
  4400    0.4400   3.59e-04  +1.49e-02  +5.57e-01   3.38e-03  +1.39e-01  +5.21e+00   1.51e-01  -5.15e-01  +1.15e+01   3.59e-02  +4.50e-01  +3.51e+00  
  4600    0.4600   4.51e-04  +1.83e-02  +6.72e-01   4.24e-03  +1.71e-01  +6.38e+00   1.49e-01  -4.58e-01  +1.14e+01   3.82e-02  +4.70e-01  +4.02e+00  
  4800    0.4800   5.63e-04  +2.24e-02  +8.11e-01   5.29e-03  +2.10e-01  +7.84e+00   1.47e-01  -4.02e-01  +1.12e+01   4.07e-02  +4.93e-01  +4.60e+00  
  5000    0.5000   6.99e-04  +2.73e-02  +9.81e-01   6.58e-03  +2.59e-01  +9.71e+00   1.45e-01  -3.47e-01  +1.10e+01   4.33e-02  +5.19e-01  +5.23e+00  

  Phase portrait classification:
    ENERGY      : Var=6.99e-04 dVar=2.73e-02 → SLOW REPELLER
    ENSTROPHY   : Var=6.58e-03 dVar=2.59e-01 → SLOW REPELLER
    SHELL_η    : Var=1.45e-01 dVar=-3.47e-01 → TRANSIENT
    ACCUM_R     : Var=4.33e-02 dVar=5.19e-01 → REPELLER (spiral out)

  === amp=0.28 ===

  Step   Time     Var_ENERGY  dVar/dt    d²Var/dt²  Var_ENSTROPHY  dVar/dt    d²Var/dt²  Var_SHELL_η  dVar/dt    d²Var/dt²  Var_ACCUM_R  dVar/dt    d²Var/dt²  
  50      0.0050   4.69e-12  +9.38e-10  +1.88e-07   5.38e-11  +1.08e-08  +2.15e-06   2.47e-01  +4.95e+01  +9.90e+03   6.76e-06  +1.35e-03  +2.71e-01  
  200     0.0200   1.20e-09  +2.40e-07  +4.78e-05   1.38e-08  +2.75e-06  +5.47e-04   2.44e-01  -6.90e-01  -1.00e+04   2.91e-04  +5.68e-02  +1.11e+01  
  400     0.0400   1.97e-08  +3.70e-06  +6.92e-04   2.23e-07  +4.19e-05  +7.82e-03   2.40e-01  -8.76e-01  -3.72e+01   1.16e-03  +1.74e-01  +2.35e+01  
  600     0.0600   1.02e-07  +1.65e-05  +2.57e-03   1.14e-06  +1.84e-04  +2.85e-02   2.35e-01  -8.29e-01  +9.40e+00   2.41e-03  +2.49e-01  +1.50e+01  
  800     0.0800   3.33e-07  +4.61e-05  +5.91e-03   3.67e-06  +5.05e-04  +6.41e-02   2.30e-01  -1.03e+00  -3.97e+01   3.89e-03  +2.97e-01  +9.66e+00  
  1000    0.1000   8.36e-07  +1.01e-04  +1.09e-02   9.10e-06  +1.09e-03  +1.16e-01   2.24e-01  -1.17e+00  -2.85e+01   5.54e-03  +3.29e-01  +6.32e+00  
  1200    0.1200   1.79e-06  +1.90e-04  +1.79e-02   1.92e-05  +2.02e-03  +1.87e-01   2.18e-01  -1.23e+00  -1.24e+01   7.29e-03  +3.50e-01  +4.21e+00  
  1400    0.1400   3.42e-06  +3.26e-04  +2.72e-02   3.62e-05  +3.41e-03  +2.78e-01   2.12e-01  -1.25e+00  -4.45e+00   9.11e-03  +3.64e-01  +2.87e+00  
  1600    0.1600   6.03e-06  +5.22e-04  +3.92e-02   6.31e-05  +5.37e-03  +3.93e-01   2.06e-01  -1.24e+00  +1.79e+00   1.10e-02  +3.74e-01  +2.05e+00  
  1800    0.1800   1.00e-05  +7.94e-04  +5.43e-02   1.03e-04  +8.05e-03  +5.35e-01   2.00e-01  -1.21e+00  +6.79e+00   1.29e-02  +3.82e-01  +1.58e+00  
  2000    0.2000   1.58e-05  +1.16e-03  +7.33e-02   1.61e-04  +1.16e-02  +7.09e-01   1.94e-01  -1.18e+00  +6.30e+00   1.48e-02  +3.89e-01  +1.34e+00  
  2200    0.2200   2.40e-05  +1.64e-03  +9.66e-02   2.42e-04  +1.62e-02  +9.21e-01   1.88e-01  -1.18e+00  +6.23e-01   1.68e-02  +3.95e-01  +1.27e+00  
  2400    0.2400   3.54e-05  +2.27e-03  +1.25e-01   3.53e-04  +2.21e-02  +1.18e+00   1.82e-01  -1.12e+00  +1.14e+01   1.88e-02  +4.02e-01  +1.33e+00  
  2600    0.2600   5.07e-05  +3.07e-03  +1.60e-01   5.01e-04  +2.96e-02  +1.49e+00   1.77e-01  -1.06e+00  +1.27e+01   2.09e-02  +4.09e-01  +1.48e+00  
  2800    0.2800   7.12e-05  +4.09e-03  +2.03e-01   6.95e-04  +3.89e-02  +1.87e+00   1.72e-01  -9.88e-01  +1.35e+01   2.30e-02  +4.18e-01  +1.72e+00  
  3000    0.3000   9.80e-05  +5.36e-03  +2.55e-01   9.48e-04  +5.06e-02  +2.34e+00   1.68e-01  -9.18e-01  +1.41e+01   2.51e-02  +4.28e-01  +2.02e+00  
  3200    0.3200   1.33e-04  +6.95e-03  +3.18e-01   1.27e-03  +6.52e-02  +2.91e+00   1.63e-01  -8.46e-01  +1.44e+01   2.73e-02  +4.40e-01  +2.40e+00  
  3400    0.3400   1.77e-04  +8.93e-03  +3.95e-01   1.69e-03  +8.33e-02  +3.62e+00   1.59e-01  -7.73e-01  +1.46e+01   2.96e-02  +4.54e-01  +2.84e+00  
  3600    0.3600   2.34e-04  +1.14e-02  +4.89e-01   2.22e-03  +1.06e-01  +4.50e+00   1.56e-01  -7.00e-01  +1.46e+01   3.19e-02  +4.71e-01  +3.35e+00  
  3800    0.3800   3.06e-04  +1.44e-02  +6.04e-01   2.89e-03  +1.34e-01  +5.60e+00   1.53e-01  -6.27e-01  +1.46e+01   3.44e-02  +4.91e-01  +3.94e+00  
  4000    0.4000   3.97e-04  +1.81e-02  +7.46e-01   3.73e-03  +1.69e-01  +7.01e+00   1.50e-01  -5.55e-01  +1.44e+01   3.70e-02  +5.14e-01  +4.62e+00  
  4200    0.4200   5.11e-04  +2.27e-02  +9.21e-01   4.80e-03  +2.13e-01  +8.82e+00   1.48e-01  -4.84e-01  +1.42e+01   3.97e-02  +5.41e-01  +5.38e+00  
  4400    0.4400   6.53e-04  +2.84e-02  +1.14e+00   6.14e-03  +2.69e-01  +1.12e+01   1.46e-01  -4.14e-01  +1.39e+01   4.25e-02  +5.72e-01  +6.23e+00  
  4600    0.4600   8.30e-04  +3.55e-02  +1.41e+00   7.84e-03  +3.40e-01  +1.43e+01   1.44e-01  -3.47e-01  +1.36e+01   4.56e-02  +6.08e-01  +7.17e+00  
  4800    0.4800   1.05e-03  +4.43e-02  +1.76e+00   1.00e-02  +4.33e-01  +1.85e+01   1.42e-01  -2.81e-01  +1.31e+01   4.88e-02  +6.49e-01  +8.16e+00  
  5000    0.5000   1.33e-03  +5.54e-02  +2.21e+00   1.28e-02  +5.53e-01  +2.42e+01   1.41e-01  -2.18e-01  +1.26e+01   5.23e-02  +6.94e-01  +9.15e+00  

  Phase portrait classification:
    ENERGY      : Var=1.33e-03 dVar=5.54e-02 → SLOW REPELLER
    ENSTROPHY   : Var=1.28e-02 dVar=5.53e-01 → REPELLER (spiral out)
    SHELL_η    : Var=1.41e-01 dVar=-2.18e-01 → TRANSIENT
    ACCUM_R     : Var=5.23e-02 dVar=6.94e-01 → REPELLER (spiral out)

  === amp=0.30 ===

  Step   Time     Var_ENERGY  dVar/dt    d²Var/dt²  Var_ENSTROPHY  dVar/dt    d²Var/dt²  Var_SHELL_η  dVar/dt    d²Var/dt²  Var_ACCUM_R  dVar/dt    d²Var/dt²  
  50      0.0050   6.18e-12  +1.24e-09  +2.47e-07   7.09e-11  +1.42e-08  +2.83e-06   2.47e-01  +4.95e+01  +9.89e+03   7.79e-06  +1.56e-03  +3.11e-01  
  200     0.0200   1.59e-09  +3.17e-07  +6.31e-05   1.82e-08  +3.63e-06  +7.22e-04   2.44e-01  -7.40e-01  -1.00e+04   3.32e-04  +6.49e-02  +1.27e+01  
  400     0.0400   2.61e-08  +4.90e-06  +9.17e-04   2.95e-07  +5.53e-05  +1.03e-02   2.39e-01  -9.59e-01  -4.36e+01   1.32e-03  +1.97e-01  +2.63e+01  
  600     0.0600   1.36e-07  +2.20e-05  +3.41e-03   1.51e-06  +2.44e-04  +3.77e-02   2.34e-01  -9.18e-01  +8.08e+00   2.71e-03  +2.78e-01  +1.63e+01  
  800     0.0800   4.43e-07  +6.13e-05  +7.88e-03   4.86e-06  +6.69e-04  +8.51e-02   2.29e-01  -1.12e+00  -4.08e+01   4.35e-03  +3.29e-01  +1.02e+01  
  1000    0.1000   1.12e-06  +1.35e-04  +1.46e-02   1.21e-05  +1.44e-03  +1.55e-01   2.22e-01  -1.27e+00  -2.94e+01   6.16e-03  +3.61e-01  +6.49e+00  
  1200    0.1200   2.39e-06  +2.55e-04  +2.41e-02   2.55e-05  +2.69e-03  +2.50e-01   2.16e-01  -1.33e+00  -1.12e+01   8.07e-03  +3.83e-01  +4.22e+00  
  1400    0.1400   4.59e-06  +4.39e-04  +3.68e-02   4.83e-05  +4.56e-03  +3.73e-01   2.09e-01  -1.34e+00  -2.27e+00   1.01e-02  +3.97e-01  +2.85e+00  
  1600    0.1600   8.12e-06  +7.06e-04  +5.34e-02   8.43e-05  +7.20e-03  +5.30e-01   2.02e-01  -1.31e+00  +4.73e+00   1.21e-02  +4.07e-01  +2.05e+00  
  1800    0.1800   1.35e-05  +1.08e-03  +7.45e-02   1.39e-04  +1.08e-02  +7.26e-01   1.96e-01  -1.26e+00  +1.02e+01   1.42e-02  +4.15e-01  +1.63e+00  
  2000    0.2000   2.14e-05  +1.58e-03  +1.01e-01   2.17e-04  +1.57e-02  +9.69e-01   1.90e-01  -1.27e+00  -2.55e+00   1.63e-02  +4.23e-01  +1.47e+00  
  2200    0.2200   3.27e-05  +2.26e-03  +1.34e-01   3.27e-04  +2.20e-02  +1.27e+00   1.84e-01  -1.21e+00  +1.23e+01   1.84e-02  +4.30e-01  +1.50e+00  
  2400    0.2400   4.84e-05  +3.13e-03  +1.76e-01   4.78e-04  +3.02e-02  +1.64e+00   1.78e-01  -1.14e+00  +1.41e+01   2.06e-02  +4.38e-01  +1.66e+00  
  2600    0.2600   6.97e-05  +4.27e-03  +2.27e-01   6.81e-04  +4.07e-02  +2.09e+00   1.73e-01  -1.07e+00  +1.53e+01   2.29e-02  +4.48e-01  +1.93e+00  
  2800    0.2800   9.83e-05  +5.72e-03  +2.90e-01   9.51e-04  +5.40e-02  +2.66e+00   1.68e-01  -9.86e-01  +1.60e+01   2.52e-02  +4.59e-01  +2.30e+00  
  3000    0.3000   1.36e-04  +7.55e-03  +3.67e-01   1.31e-03  +7.08e-02  +3.36e+00   1.63e-01  -9.03e-01  +1.65e+01   2.75e-02  +4.73e-01  +2.76e+00  
  3200    0.3200   1.85e-04  +9.87e-03  +4.64e-01   1.77e-03  +9.20e-02  +4.24e+00   1.59e-01  -8.20e-01  +1.67e+01   3.00e-02  +4.90e-01  +3.31e+00  
  3400    0.3400   2.49e-04  +1.28e-02  +5.83e-01   2.36e-03  +1.19e-01  +5.36e+00   1.55e-01  -7.36e-01  +1.67e+01   3.25e-02  +5.10e-01  +3.96e+00  
  3600    0.3600   3.32e-04  +1.64e-02  +7.31e-01   3.12e-03  +1.53e-01  +6.80e+00   1.52e-01  -6.53e-01  +1.67e+01   3.52e-02  +5.33e-01  +4.71e+00  
  3800    0.3800   4.37e-04  +2.10e-02  +9.16e-01   4.10e-03  +1.96e-01  +8.66e+00   1.49e-01  -5.70e-01  +1.65e+01   3.80e-02  +5.61e-01  +5.57e+00  
  4000    0.4000   5.70e-04  +2.68e-02  +1.15e+00   5.36e-03  +2.52e-01  +1.11e+01   1.47e-01  -4.89e-01  +1.62e+01   4.10e-02  +5.94e-01  +6.55e+00  
  4200    0.4200   7.41e-04  +3.40e-02  +1.45e+00   6.98e-03  +3.24e-01  +1.44e+01   1.45e-01  -4.10e-01  +1.58e+01   4.41e-02  +6.32e-01  +7.64e+00  
  4400    0.4400   9.56e-04  +4.32e-02  +1.83e+00   9.07e-03  +4.18e-01  +1.88e+01   1.43e-01  -3.34e-01  +1.54e+01   4.75e-02  +6.76e-01  +8.83e+00  
  4600    0.4600   1.23e-03  +5.48e-02  +2.33e+00   1.18e-02  +5.43e-01  +2.50e+01   1.42e-01  -2.60e-01  +1.48e+01   5.11e-02  +7.26e-01  +1.01e+01  
  4800    0.4800   1.58e-03  +6.97e-02  +2.99e+00   1.53e-02  +7.11e-01  +3.37e+01   1.40e-01  -2.59e-01  +1.96e-01   5.50e-02  +7.83e-01  +1.12e+01  
  5000    0.5000   2.02e-03  +8.91e-02  +3.87e+00   2.00e-02  +9.41e-01  +4.60e+01   1.39e-01  -3.00e-01  -8.21e+00   5.93e-02  +8.43e-01  +1.21e+01  

  Phase portrait classification:
    ENERGY      : Var=2.02e-03 dVar=8.91e-02 → SLOW REPELLER
    ENSTROPHY   : Var=2.00e-02 dVar=9.41e-01 → REPELLER (spiral out)
    SHELL_η    : Var=1.39e-01 dVar=-3.00e-01 → TRANSIENT
    ACCUM_R     : Var=5.93e-02 dVar=8.43e-01 → REPELLER (spiral out)

  === amp=0.32 ===

  Step   Time     Var_ENERGY  dVar/dt    d²Var/dt²  Var_ENSTROPHY  dVar/dt    d²Var/dt²  Var_SHELL_η  dVar/dt    d²Var/dt²  Var_ACCUM_R  dVar/dt    d²Var/dt²  
  50      0.0050   8.01e-12  +1.60e-09  +3.20e-07   9.17e-11  +1.83e-08  +3.67e-06   2.47e-01  +4.94e+01  +9.88e+03   8.88e-06  +1.78e-03  +3.55e-01  
  200     0.0200   2.06e-09  +4.11e-07  +8.19e-05   2.36e-08  +4.70e-06  +9.36e-04   2.43e-01  -7.91e-01  -1.00e+04   3.76e-04  +7.34e-02  +1.43e+01  
  400     0.0400   3.39e-08  +6.37e-06  +1.19e-03   3.82e-07  +7.18e-05  +1.34e-02   2.38e-01  -1.04e+00  -5.02e+01   1.48e-03  +2.20e-01  +2.93e+01  
  600     0.0600   1.77e-07  +2.86e-05  +4.45e-03   1.97e-06  +3.17e-04  +4.90e-02   2.33e-01  -1.01e+00  +6.77e+00   3.01e-03  +3.08e-01  +1.75e+01  
  800     0.0800   5.78e-07  +8.02e-05  +1.03e-02   6.33e-06  +8.72e-04  +1.11e-01   2.27e-01  -1.22e+00  -4.22e+01   4.82e-03  +3.61e-01  +1.07e+01  
  1000    0.1000   1.46e-06  +1.77e-04  +1.93e-02   1.57e-05  +1.88e-03  +2.03e-01   2.20e-01  -1.37e+00  -2.97e+01   6.79e-03  +3.94e-01  +6.62e+00  
  1200    0.1200   3.14e-06  +3.36e-04  +3.19e-02   3.34e-05  +3.52e-03  +3.28e-01   2.13e-01  -1.42e+00  -9.56e+00   8.86e-03  +4.15e-01  +4.21e+00  
  1400    0.1400   6.05e-06  +5.81e-04  +4.90e-02   6.33e-05  +5.98e-03  +4.92e-01   2.06e-01  -1.41e+00  +3.93e-01   1.10e-02  +4.29e-01  +2.82e+00  
  1600    0.1600   1.07e-05  +9.39e-04  +7.15e-02   1.11e-04  +9.50e-03  +7.03e-01   1.99e-01  -1.37e+00  +8.15e+00   1.32e-02  +4.40e-01  +2.07e+00  
  1800    0.1800   1.79e-05  +1.44e-03  +1.00e-01   1.83e-04  +1.43e-02  +9.69e-01   1.92e-01  -1.35e+00  +3.99e+00   1.54e-02  +4.48e-01  +1.73e+00  
  2000    0.2000   2.86e-05  +2.13e-03  +1.37e-01   2.87e-04  +2.09e-02  +1.30e+00   1.86e-01  -1.32e+00  +7.22e+00   1.77e-02  +4.57e-01  +1.67e+00  
  2200    0.2200   4.38e-05  +3.05e-03  +1.84e-01   4.34e-04  +2.95e-02  +1.72e+00   1.79e-01  -1.24e+00  +1.53e+01   2.01e-02  +4.66e-01  +1.81e+00  
  2400    0.2400   6.51e-05  +4.26e-03  +2.42e-01   6.37e-04  +4.07e-02  +2.24e+00   1.74e-01  -1.16e+00  +1.70e+01   2.24e-02  +4.76e-01  +2.11e+00  
  2600    0.2600   9.43e-05  +5.83e-03  +3.15e-01   9.13e-04  +5.52e-02  +2.90e+00   1.68e-01  -1.07e+00  +1.80e+01   2.49e-02  +4.89e-01  +2.54e+00  
  2800    0.2800   1.34e-04  +7.87e-03  +4.07e-01   1.28e-03  +7.38e-02  +3.73e+00   1.63e-01  -9.73e-01  +1.86e+01   2.74e-02  +5.04e-01  +3.08e+00  
  3000    0.3000   1.86e-04  +1.05e-02  +5.22e-01   1.77e-03  +9.77e-02  +4.78e+00   1.59e-01  -8.78e-01  +1.89e+01   3.00e-02  +5.23e-01  +3.74e+00  
  3200    0.3200   2.55e-04  +1.38e-02  +6.67e-01   2.41e-03  +1.28e-01  +6.14e+00   1.55e-01  -7.83e-01  +1.90e+01   3.27e-02  +5.46e-01  +4.52e+00  
  3400    0.3400   3.45e-04  +1.81e-02  +8.50e-01   3.25e-03  +1.68e-01  +7.91e+00   1.52e-01  -6.88e-01  +1.89e+01   3.56e-02  +5.73e-01  +5.44e+00  
  3600    0.3600   4.63e-04  +2.35e-02  +1.08e+00   4.35e-03  +2.19e-01  +1.03e+01   1.49e-01  -5.95e-01  +1.87e+01   3.86e-02  +6.05e-01  +6.50e+00  
  3800    0.3800   6.15e-04  +3.04e-02  +1.38e+00   5.78e-03  +2.86e-01  +1.34e+01   1.46e-01  -5.03e-01  +1.84e+01   4.19e-02  +6.44e-01  +7.72e+00  
  4000    0.4000   8.11e-04  +3.92e-02  +1.77e+00   7.66e-03  +3.75e-01  +1.77e+01   1.44e-01  -4.13e-01  +1.79e+01   4.53e-02  +6.89e-01  +9.08e+00  
  4200    0.4200   1.06e-03  +5.06e-02  +2.27e+00   1.01e-02  +4.94e-01  +2.38e+01   1.42e-01  -3.27e-01  +1.73e+01   4.90e-02  +7.42e-01  +1.05e+01  
  4400    0.4400   1.39e-03  +6.53e-02  +2.95e+00   1.34e-02  +6.55e-01  +3.23e+01   1.41e-01  -2.73e-01  +1.08e+01   5.30e-02  +8.02e-01  +1.20e+01  
  4600    0.4600   1.81e-03  +8.47e-02  +3.87e+00   1.78e-02  +8.79e-01  +4.48e+01   1.39e-01  -3.51e-01  -1.56e+01   5.74e-02  +8.69e-01  +1.33e+01  
  4800    0.4800   2.37e-03  +1.10e-01  +5.14e+00   2.38e-02  +1.20e+00  +6.32e+01   1.36e-01  -6.19e-01  -5.37e+01   6.21e-02  +9.39e-01  +1.41e+01  
  5000    0.5000   3.09e-03  +1.45e-01  +6.94e+00   3.20e-02  +1.65e+00  +9.06e+01   1.32e-01  -7.91e-01  -3.44e+01   6.71e-02  +1.01e+00  +1.38e+01  

  Phase portrait classification:
    ENERGY      : Var=3.09e-03 dVar=1.45e-01 → SLOW REPELLER
    ENSTROPHY   : Var=3.20e-02 dVar=1.65e+00 → REPELLER (spiral out)
    SHELL_η    : Var=1.32e-01 dVar=-7.91e-01 → TRANSIENT
    ACCUM_R     : Var=6.71e-02 dVar=1.01e+00 → REPELLER (spiral out)

  === amp=0.35 ===

  Step   Time     Var_ENERGY  dVar/dt    d²Var/dt²  Var_ENSTROPHY  dVar/dt    d²Var/dt²  Var_SHELL_η  dVar/dt    d²Var/dt²  Var_ACCUM_R  dVar/dt    d²Var/dt²  
  50      0.0050   1.15e-11  +2.29e-09  +4.59e-07   1.31e-10  +2.63e-08  +5.25e-06   2.47e-01  +4.94e+01  +9.87e+03   1.06e-05  +2.13e-03  +4.26e-01  
  200     0.0200   2.96e-09  +5.90e-07  +1.18e-04   3.38e-08  +6.73e-06  +1.34e-03   2.42e-01  -8.68e-01  -1.00e+04   4.46e-04  +8.70e-02  +1.70e+01  
  400     0.0400   4.88e-08  +9.18e-06  +1.72e-03   5.49e-07  +1.03e-04  +1.93e-02   2.37e-01  -1.17e+00  -6.02e+01   1.73e-03  +2.56e-01  +3.39e+01  
  600     0.0600   2.56e-07  +4.14e-05  +6.45e-03   2.83e-06  +4.56e-04  +7.06e-02   2.31e-01  -1.14e+00  +4.85e+00   3.49e-03  +3.53e-01  +1.93e+01  
  800     0.0800   8.39e-07  +1.17e-04  +1.50e-02   9.13e-06  +1.26e-03  +1.61e-01   2.24e-01  -1.37e+00  -4.49e+01   5.54e-03  +4.09e-01  +1.13e+01  
  1000    0.1000   2.13e-06  +2.58e-04  +2.83e-02   2.28e-05  +2.73e-03  +2.95e-01   2.16e-01  -1.51e+00  -2.88e+01   7.75e-03  +4.43e-01  +6.72e+00  
  1200    0.1200   4.60e-06  +4.95e-04  +4.73e-02   4.85e-05  +5.13e-03  +4.80e-01   2.09e-01  -1.54e+00  -6.24e+00   1.01e-02  +4.64e-01  +4.18e+00  
  1400    0.1400   8.91e-06  +8.61e-04  +7.32e-02   9.23e-05  +8.76e-03  +7.26e-01   2.01e-01  -1.52e+00  +5.33e+00   1.25e-02  +4.78e-01  +2.81e+00  
  1600    0.1600   1.59e-05  +1.40e-03  +1.08e-01   1.62e-04  +1.40e-02  +1.05e+00   1.94e-01  -1.48e+00  +7.60e+00   1.49e-02  +4.89e-01  +2.17e+00  
  1800    0.1800   2.67e-05  +2.16e-03  +1.53e-01   2.69e-04  +2.13e-02  +1.46e+00   1.86e-01  -1.45e+00  +5.55e+00   1.74e-02  +4.99e-01  +2.00e+00  
  2000    0.2000   4.28e-05  +3.22e-03  +2.11e-01   4.25e-04  +3.12e-02  +1.98e+00   1.80e-01  -1.36e+00  +1.76e+01   1.99e-02  +5.09e-01  +2.13e+00  
  2200    0.2200   6.61e-05  +4.65e-03  +2.87e-01   6.47e-04  +4.45e-02  +2.65e+00   1.73e-01  -1.26e+00  +1.99e+01   2.26e-02  +5.22e-01  +2.50e+00  
